 Incident particle is a   Muon with M =   105.65839 MeV
 Index =  325:  water (ice) (H\sub{2}O)
      Absorber with <Z/A> =  0.55509, density = 0.918 (revised)
 Sternheimer coef:  a     k=m_s   x_0    x_1    I[eV]   Cbar  delta0 
                 0.0912  3.4773  0.2586  2.8190   79.7  3.5873 0.00
 (Restricted energy loss for Tcut = 0.05 MeV
 Table written with (1X, 1P9E10.3,0PF8.4,f8.5,1pE10.3)          post-Born included in pair prod
 *** Results below 10 MeV are not dependable ***
      T         p     Ionization  brems     pair     photonuc  Radloss    dE/dx   CSDA Range  delta   beta   dE/dx_R
    [MeV]    [MeV/c]  -----------------------[MeV cm^2/g]------------------------  [g/cm^2]                [MeV cm^2/g]
  1.000E+00 1.457E+01 3.056E+00 0.000E+00 0.000E+00 5.009E-05 5.009E-05 6.112E+00 1.864E-03  0.0000 0.13661 4.999E+01
  1.200E+00 1.597E+01 4.314E+01 0.000E+00 0.000E+00 5.018E-05 5.018E-05 4.314E+01 6.184E-03  0.0000 0.14944 4.314E+01
  1.400E+00 1.726E+01 3.808E+01 0.000E+00 0.000E+00 5.028E-05 5.028E-05 3.808E+01 1.113E-02  0.0000 0.16119 3.808E+01
  1.700E+00 1.903E+01 3.252E+01 0.000E+00 0.000E+00 5.042E-05 5.042E-05 3.252E+01 1.969E-02  0.0000 0.17725 3.252E+01
  2.000E+00 2.066E+01 2.849E+01 0.000E+00 0.000E+00 5.056E-05 5.056E-05 2.849E+01 2.957E-02  0.0000 0.19186 2.849E+01
  2.500E+00 2.312E+01 2.376E+01 0.000E+00 0.000E+00 5.080E-05 5.080E-05 2.376E+01 4.887E-02  0.0000 0.21376 2.376E+01
  3.000E+00 2.536E+01 2.049E+01 0.000E+00 0.000E+00 5.103E-05 5.103E-05 2.049E+01 7.161E-02  0.0000 0.23336 2.026E+01
  3.500E+00 2.742E+01 1.808E+01 0.000E+00 0.000E+00 5.126E-05 5.126E-05 1.808E+01 9.765E-02  0.0000 0.25120 1.768E+01
  4.000E+00 2.935E+01 1.623E+01 0.000E+00 0.000E+00 5.150E-05 5.150E-05 1.623E+01 1.269E-01  0.0000 0.26763 1.573E+01
  4.500E+00 3.116E+01 1.476E+01 0.000E+00 0.000E+00 5.173E-05 5.173E-05 1.476E+01 1.592E-01  0.0000 0.28290 1.420E+01
  5.000E+00 3.289E+01 1.357E+01 0.000E+00 0.000E+00 5.197E-05 5.197E-05 1.357E+01 1.946E-01  0.0000 0.29720 1.296E+01
  5.500E+00 3.453E+01 1.258E+01 0.000E+00 0.000E+00 5.220E-05 5.220E-05 1.258E+01 2.329E-01  0.0000 0.31066 1.194E+01
  6.000E+00 3.611E+01 1.174E+01 0.000E+00 0.000E+00 5.244E-05 5.244E-05 1.174E+01 2.741E-01  0.0000 0.32339 1.109E+01
  7.000E+00 3.909E+01 1.040E+01 0.000E+00 0.000E+00 5.291E-05 5.291E-05 1.040E+01 3.648E-01  0.0000 0.34700 9.731E+00
  8.000E+00 4.189E+01 9.372E+00 0.000E+00 0.000E+00 5.338E-05 5.338E-05 9.372E+00 4.663E-01  0.0000 0.36854 8.704E+00
  9.000E+00 4.453E+01 8.561E+00 0.000E+00 0.000E+00 5.385E-05 5.385E-05 8.561E+00 5.781E-01  0.0000 0.38836 7.899E+00
  1.000E+01 4.704E+01 7.902E+00 0.000E+00 0.000E+00 5.432E-05 5.432E-05 7.902E+00 6.998E-01  0.0000 0.40675 7.251E+00
  1.200E+01 5.177E+01 6.897E+00 0.000E+00 0.000E+00 5.526E-05 5.526E-05 6.897E+00 9.715E-01  0.0000 0.43998 6.270E+00
  1.400E+01 5.616E+01 6.166E+00 0.000E+00 0.000E+00 5.620E-05 5.620E-05 6.166E+00 1.279E+00  0.0000 0.46937 5.562E+00
  1.700E+01 6.230E+01 5.378E+00 0.000E+00 0.000E+00 5.760E-05 5.760E-05 5.378E+00 1.802E+00  0.0000 0.50792 4.806E+00
  2.000E+01 6.802E+01 4.817E+00 0.000E+00 0.000E+00 5.901E-05 5.901E-05 4.817E+00 2.392E+00  0.0000 0.54129 4.274E+00
  2.500E+01 7.686E+01 4.172E+00 0.000E+00 0.000E+00 6.136E-05 6.136E-05 4.172E+00 3.513E+00  0.0000 0.58827 3.666E+00
  3.000E+01 8.509E+01 3.738E+00 0.000E+00 0.000E+00 6.371E-05 6.371E-05 3.738E+00 4.782E+00  0.0000 0.62720 3.259E+00
  3.500E+01 9.285E+01 3.426E+00 0.000E+00 0.000E+00 6.606E-05 6.606E-05 3.426E+00 6.182E+00  0.0000 0.66011 2.969E+00
  4.000E+01 1.003E+02 3.192E+00 0.000E+00 0.000E+00 6.841E-05 6.841E-05 3.192E+00 7.696E+00  0.0000 0.68834 2.751E+00
  4.500E+01 1.074E+02 3.011E+00 0.000E+00 0.000E+00 7.075E-05 7.075E-05 3.011E+00 9.310E+00  0.0000 0.71286 2.583E+00
  5.000E+01 1.143E+02 2.867E+00 2.619E-07 0.000E+00 7.310E-05 7.336E-05 2.867E+00 1.101E+01  0.0000 0.73434 2.449E+00
  5.500E+01 1.210E+02 2.750E+00 8.442E-07 0.000E+00 7.545E-05 7.630E-05 2.750E+00 1.279E+01  0.0000 0.75332 2.340E+00
  6.000E+01 1.276E+02 2.654E+00 1.444E-06 0.000E+00 7.780E-05 7.924E-05 2.654E+00 1.465E+01  0.0000 0.77019 2.251E+00
  7.000E+01 1.403E+02 2.506E+00 2.695E-06 0.000E+00 8.250E-05 8.519E-05 2.506E+00 1.853E+01  0.0000 0.79887 2.112E+00
  8.000E+01 1.527E+02 2.398E+00 4.010E-06 0.000E+00 8.719E-05 9.120E-05 2.398E+00 2.261E+01  0.0000 0.82227 2.010E+00
  9.000E+01 1.647E+02 2.317E+00 5.386E-06 0.000E+00 9.189E-05 9.727E-05 2.317E+00 2.686E+01  0.0000 0.84166 1.933E+00
  1.000E+02 1.764E+02 2.256E+00 6.819E-06 0.000E+00 9.658E-05 1.034E-04 2.256E+00 3.124E+01  0.0000 0.85794 1.873E+00
  1.200E+02 1.994E+02 2.167E+00 9.849E-06 0.000E+00 1.060E-04 1.158E-04 2.168E+00 4.029E+01  0.0240 0.88361 1.785E+00
  1.400E+02 2.218E+02 2.106E+00 1.308E-05 0.000E+00 1.154E-04 1.284E-04 2.107E+00 4.966E+01  0.0921 0.90278 1.722E+00
  1.700E+02 2.546E+02 2.050E+00 1.826E-05 0.000E+00 1.295E-04 1.477E-04 2.050E+00 6.411E+01  0.1902 0.92363 1.659E+00
  2.000E+02 2.868E+02 2.018E+00 2.382E-05 0.000E+00 1.435E-04 1.674E-04 2.018E+00 7.887E+01  0.2834 0.93835 1.619E+00
  2.500E+02 3.396E+02 1.992E+00 3.381E-05 0.000E+00 1.670E-04 2.008E-04 1.993E+00 1.038E+02  0.4284 0.95485 1.579E+00
  3.000E+02 3.917E+02 1.985E+00 4.459E-05 0.000E+00 1.905E-04 2.351E-04 1.985E+00 1.290E+02  0.5622 0.96548 1.556E+00
  3.143E+02 4.065E+02 1.984E+00 5.607E-05 0.000E+00 2.140E-04 2.701E-04 1.986E+00  Minimum ionization
  3.500E+02 4.432E+02 1.986E+00 5.607E-05 0.000E+00 2.140E-04 2.701E-04 1.986E+00 1.542E+02  0.6864 0.97274 1.543E+00
  4.000E+02 4.945E+02 1.992E+00 6.817E-05 0.000E+00 2.375E-04 3.056E-04 1.992E+00 1.793E+02  0.8022 0.97793 1.535E+00
  4.500E+02 5.455E+02 2.000E+00 8.083E-05 0.000E+00 2.610E-04 3.418E-04 2.000E+00 2.044E+02  0.9109 0.98176 1.530E+00
  5.000E+02 5.964E+02 2.009E+00 9.400E-05 0.000E+00 2.844E-04 3.784E-04 2.010E+00 2.293E+02  1.0133 0.98467 1.528E+00
  5.500E+02 6.471E+02 2.019E+00 1.076E-04 0.000E+00 3.079E-04 4.156E-04 2.020E+00 2.541E+02  1.1100 0.98693 1.526E+00
  6.000E+02 6.977E+02 2.029E+00 1.217E-04 0.000E+00 3.314E-04 4.531E-04 2.030E+00 2.788E+02  1.2018 0.98873 1.525E+00
  7.000E+02 7.987E+02 2.049E+00 1.510E-04 0.000E+00 3.784E-04 5.294E-04 2.050E+00 3.278E+02  1.3723 0.99136 1.525E+00
  8.000E+02 8.995E+02 2.069E+00 1.817E-04 0.000E+00 4.253E-04 6.071E-04 2.069E+00 3.764E+02  1.5282 0.99317 1.527E+00
  9.000E+02 1.000E+03 2.087E+00 2.137E-04 0.000E+00 4.723E-04 6.860E-04 2.087E+00 4.245E+02  1.6718 0.99447 1.528E+00
  1.000E+03 1.101E+03 2.103E+00 2.468E-04 7.059E-06 5.193E-04 7.731E-04 2.104E+00 4.722E+02  1.8051 0.99542 1.530E+00
  1.200E+03 1.301E+03 2.134E+00 3.160E-04 5.280E-05 6.132E-04 9.820E-04 2.135E+00 5.666E+02  2.0459 0.99672 1.534E+00
  1.400E+03 1.502E+03 2.160E+00 3.886E-04 1.049E-04 7.071E-04 1.201E-03 2.161E+00 6.597E+02  2.2594 0.99753 1.538E+00
  1.700E+03 1.803E+03 2.194E+00 5.031E-04 1.929E-04 8.480E-04 1.544E-03 2.195E+00 7.974E+02  2.5405 0.99829 1.543E+00
  2.000E+03 2.103E+03 2.222E+00 6.233E-04 2.913E-04 9.922E-04 1.907E-03 2.224E+00 9.331E+02  2.7856 0.99874 1.546E+00
  2.500E+03 2.604E+03 2.261E+00 8.340E-04 4.742E-04 1.245E-03 2.553E-03 2.264E+00 1.156E+03  3.1357 0.99918 1.552E+00
  3.000E+03 3.104E+03 2.293E+00 1.056E-03 6.769E-04 1.500E-03 3.232E-03 2.296E+00 1.375E+03  3.4326 0.99942 1.555E+00
  3.500E+03 3.604E+03 2.320E+00 1.286E-03 8.961E-04 1.757E-03 3.940E-03 2.324E+00 1.592E+03  3.6906 0.99957 1.558E+00
  4.000E+03 4.104E+03 2.342E+00 1.525E-03 1.130E-03 2.017E-03 4.672E-03 2.347E+00 1.806E+03  3.9190 0.99967 1.561E+00
  4.500E+03 4.604E+03 2.362E+00 1.771E-03 1.376E-03 2.279E-03 5.425E-03 2.368E+00 2.018E+03  4.1238 0.99974 1.563E+00
  5.000E+03 5.105E+03 2.380E+00 2.023E-03 1.636E-03 2.537E-03 6.196E-03 2.386E+00 2.228E+03  4.3097 0.99979 1.564E+00
  5.500E+03 5.605E+03 2.395E+00 2.286E-03 1.917E-03 2.774E-03 6.977E-03 2.402E+00 2.437E+03  4.4797 0.99982 1.566E+00
  6.000E+03 6.105E+03 2.409E+00 2.555E-03 2.209E-03 3.010E-03 7.774E-03 2.417E+00 2.644E+03  4.6366 0.99985 1.567E+00
  7.000E+03 7.105E+03 2.434E+00 3.106E-03 2.821E-03 3.480E-03 9.407E-03 2.443E+00 3.056E+03  4.9178 0.99989 1.568E+00
  8.000E+03 8.105E+03 2.455E+00 3.675E-03 3.466E-03 3.947E-03 1.109E-02 2.466E+00 3.463E+03  5.1647 0.99992 1.570E+00
  9.000E+03 9.105E+03 2.473E+00 4.259E-03 4.139E-03 4.411E-03 1.281E-02 2.486E+00 3.867E+03  5.3848 0.99993 1.571E+00
  1.000E+04 1.011E+04 2.489E+00 4.857E-03 4.840E-03 4.871E-03 1.457E-02 2.504E+00 4.268E+03  5.5833 0.99995 1.572E+00
  1.200E+04 1.211E+04 2.516E+00 6.103E-03 6.349E-03 5.765E-03 1.822E-02 2.534E+00 5.062E+03  5.9302 0.99996 1.573E+00
  1.400E+04 1.411E+04 2.539E+00 7.392E-03 7.942E-03 6.649E-03 2.198E-02 2.561E+00 5.847E+03  6.2265 0.99997 1.574E+00
  1.700E+04 1.711E+04 2.566E+00 9.393E-03 1.046E-02 7.957E-03 2.781E-02 2.594E+00 7.011E+03  6.6029 0.99998 1.574E+00
  2.000E+04 2.011E+04 2.588E+00 1.146E-02 1.312E-02 9.249E-03 3.383E-02 2.622E+00 8.161E+03  6.9205 0.99999 1.575E+00
  2.500E+04 2.511E+04 2.618E+00 1.506E-02 1.788E-02 1.140E-02 4.434E-02 2.663E+00 1.005E+04  7.3594 0.99999 1.575E+00
  3.000E+04 3.011E+04 2.642E+00 1.879E-02 2.291E-02 1.352E-02 5.523E-02 2.697E+00 1.192E+04  7.7200 0.99999 1.575E+00
  3.500E+04 3.511E+04 2.662E+00 2.263E-02 2.816E-02 1.563E-02 6.642E-02 2.728E+00 1.376E+04  8.0259 1.00000 1.576E+00
  4.000E+04 4.011E+04 2.679E+00 2.657E-02 3.361E-02 1.771E-02 7.789E-02 2.757E+00 1.558E+04  8.2915 1.00000 1.576E+00
  4.500E+04 4.511E+04 2.693E+00 3.059E-02 3.922E-02 1.978E-02 8.959E-02 2.783E+00 1.739E+04  8.5261 1.00000 1.576E+00
  5.000E+04 5.011E+04 2.706E+00 3.469E-02 4.498E-02 2.183E-02 1.015E-01 2.808E+00 1.918E+04  8.7362 1.00000 1.576E+00
  5.500E+04 5.511E+04 2.718E+00 3.884E-02 5.079E-02 2.392E-02 1.135E-01 2.831E+00 2.095E+04  8.9264 1.00000 1.576E+00
  6.000E+04 6.011E+04 2.728E+00 4.305E-02 5.671E-02 2.600E-02 1.258E-01 2.854E+00 2.271E+04  9.1000 1.00000 1.576E+00
  7.000E+04 7.011E+04 2.747E+00 5.162E-02 6.885E-02 3.014E-02 1.506E-01 2.897E+00 2.619E+04  9.4078 1.00000 1.576E+00
  8.000E+04 8.011E+04 2.763E+00 6.039E-02 8.135E-02 3.426E-02 1.760E-01 2.939E+00 2.961E+04  9.6745 1.00000 1.576E+00
  9.000E+04 9.011E+04 2.776E+00 6.932E-02 9.416E-02 3.835E-02 2.018E-01 2.978E+00 3.299E+04  9.9098 1.00000 1.576E+00
  1.000E+05 1.001E+05 2.789E+00 7.839E-02 1.073E-01 4.243E-02 2.281E-01 3.017E+00 3.633E+04 10.1203 1.00000 1.576E+00
  1.200E+05 1.201E+05 2.810E+00 9.681E-02 1.337E-01 5.071E-02 2.813E-01 3.091E+00 4.288E+04 10.4846 1.00000 1.576E+00
  1.400E+05 1.401E+05 2.828E+00 1.156E-01 1.610E-01 5.897E-02 3.356E-01 3.163E+00 4.927E+04 10.7926 1.00000 1.576E+00
  1.700E+05 1.701E+05 2.850E+00 1.446E-01 2.031E-01 7.130E-02 4.189E-01 3.269E+00 5.860E+04 11.1807 1.00000 1.576E+00
  2.000E+05 2.001E+05 2.868E+00 1.741E-01 2.464E-01 8.359E-02 5.041E-01 3.372E+00 6.764E+04 11.5055 1.00000 1.576E+00
  2.500E+05 2.501E+05 2.894E+00 2.239E-01 3.179E-01 1.044E-01 6.462E-01 3.540E+00 8.211E+04 11.9516 1.00000 1.576E+00
  3.000E+05 3.001E+05 2.914E+00 2.748E-01 3.913E-01 1.252E-01 7.913E-01 3.706E+00 9.591E+04 12.3161 1.00000 1.576E+00
  3.500E+05 3.501E+05 2.932E+00 3.266E-01 4.661E-01 1.461E-01 9.388E-01 3.871E+00 1.091E+05 12.6243 1.00000 1.576E+00
  4.000E+05 4.001E+05 2.947E+00 3.792E-01 5.423E-01 1.669E-01 1.088E+00 4.035E+00 1.218E+05 12.8913 1.00000 1.576E+00
  4.500E+05 4.501E+05 2.960E+00 4.325E-01 6.195E-01 1.877E-01 1.240E+00 4.200E+00 1.339E+05 13.1268 1.00000 1.576E+00
  5.000E+05 5.001E+05 2.972E+00 4.865E-01 6.978E-01 2.085E-01 1.393E+00 4.365E+00 1.456E+05 13.3375 1.00000 1.576E+00
  5.500E+05 5.501E+05 2.983E+00 5.401E-01 7.751E-01 2.298E-01 1.545E+00 4.528E+00 1.568E+05 13.5281 1.00000 1.576E+00
  6.000E+05 6.001E+05 2.993E+00 5.941E-01 8.531E-01 2.512E-01 1.698E+00 4.692E+00 1.677E+05 13.7020 1.00000 1.576E+00
  7.000E+05 7.001E+05 3.011E+00 7.033E-01 1.011E+00 2.941E-01 2.008E+00 5.019E+00 1.883E+05 14.0103 1.00000 1.576E+00
  8.000E+05 8.001E+05 3.026E+00 8.139E-01 1.171E+00 3.371E-01 2.322E+00 5.348E+00 2.076E+05 14.2773 1.00000 1.576E+00
  9.000E+05 9.001E+05 3.040E+00 9.257E-01 1.332E+00 3.803E-01 2.638E+00 5.678E+00 2.257E+05 14.5129 1.00000 1.576E+00
  1.000E+06 1.000E+06 3.052E+00 1.039E+00 1.496E+00 4.235E-01 2.958E+00 6.010E+00 2.428E+05 14.7236 1.00000 1.576E+00
  1.031E+06 1.031E+06 3.056E+00 1.073E+00 1.546E+00 4.372E-01 3.056E+00 6.112E+00  Muon critical energy       
  1.200E+06 1.200E+06 3.074E+00 1.263E+00 1.817E+00 5.118E-01 3.592E+00 6.666E+00 2.744E+05 15.0882 1.00000 1.576E+00
  1.400E+06 1.400E+06 3.092E+00 1.491E+00 2.142E+00 6.006E-01 4.233E+00 7.325E+00 3.030E+05 15.3964 1.00000 1.576E+00
  1.700E+06 1.700E+06 3.115E+00 1.836E+00 2.634E+00 7.346E-01 5.206E+00 8.320E+00 3.414E+05 15.7847 1.00000 1.576E+00
  2.000E+06 2.000E+06 3.134E+00 2.186E+00 3.132E+00 8.696E-01 6.188E+00 9.322E+00 3.755E+05 16.1097 1.00000 1.576E+00
  2.500E+06 2.500E+06 3.160E+00 2.766E+00 3.953E+00 1.100E+00 7.819E+00 1.098E+01 4.249E+05 16.5560 1.00000 1.576E+00
  3.000E+06 3.000E+06 3.182E+00 3.352E+00 4.781E+00 1.332E+00 9.465E+00 1.265E+01 4.673E+05 16.9206 1.00000 1.576E+00
  3.500E+06 3.500E+06 3.201E+00 3.942E+00 5.614E+00 1.567E+00 1.112E+01 1.432E+01 5.044E+05 17.2289 1.00000 1.576E+00
  4.000E+06 4.000E+06 3.217E+00 4.537E+00 6.452E+00 1.803E+00 1.279E+01 1.601E+01 5.374E+05 17.4960 1.00000 1.576E+00
  4.500E+06 4.500E+06 3.232E+00 5.136E+00 7.295E+00 2.041E+00 1.447E+01 1.770E+01 5.671E+05 17.7315 1.00000 1.576E+00
  5.000E+06 5.000E+06 3.245E+00 5.738E+00 8.141E+00 2.280E+00 1.616E+01 1.940E+01 5.940E+05 17.9423 1.00000 1.576E+00
  5.500E+06 5.500E+06 3.257E+00 6.334E+00 8.977E+00 2.524E+00 1.783E+01 2.109E+01 6.188E+05 18.1329 1.00000 1.576E+00
  6.000E+06 6.000E+06 3.268E+00 6.932E+00 9.816E+00 2.769E+00 1.952E+01 2.278E+01 6.416E+05 18.3069 1.00000 1.576E+00
  7.000E+06 7.000E+06 3.287E+00 8.132E+00 1.150E+01 3.264E+00 2.289E+01 2.618E+01 6.825E+05 18.6152 1.00000 1.576E+00
  8.000E+06 8.000E+06 3.304E+00 9.338E+00 1.318E+01 3.764E+00 2.629E+01 2.959E+01 7.184E+05 18.8823 1.00000 1.576E+00
  9.000E+06 9.000E+06 3.319E+00 1.055E+01 1.488E+01 4.267E+00 2.969E+01 3.301E+01 7.504E+05 19.1178 1.00000 1.576E+00
  1.000E+07 1.000E+07 3.332E+00 1.177E+01 1.658E+01 4.773E+00 3.312E+01 3.645E+01 7.792E+05 19.3285 1.00000 1.576E+00
  1.200E+07 1.200E+07 3.355E+00 1.418E+01 1.995E+01 5.808E+00 3.994E+01 4.330E+01 8.295E+05 19.6932 1.00000 1.576E+00
  1.400E+07 1.400E+07 3.375E+00 1.661E+01 2.333E+01 6.854E+00 4.680E+01 5.017E+01 8.723E+05 20.0015 1.00000 1.576E+00
  1.700E+07 1.700E+07 3.400E+00 2.027E+01 2.842E+01 8.443E+00 5.713E+01 6.053E+01 9.267E+05 20.3898 1.00000 1.576E+00
  2.000E+07 2.000E+07 3.422E+00 2.394E+01 3.352E+01 1.005E+01 6.752E+01 7.094E+01 9.724E+05 20.7148 1.00000 1.576E+00
  2.500E+07 2.500E+07 3.451E+00 3.004E+01 4.199E+01 1.280E+01 8.483E+01 8.828E+01 1.035E+06 21.1611 1.00000 1.576E+00
  3.000E+07 3.000E+07 3.475E+00 3.615E+01 5.048E+01 1.560E+01 1.022E+02 1.057E+02 1.087E+06 21.5257 1.00000 1.576E+00
  3.500E+07 3.500E+07 3.496E+00 4.228E+01 5.897E+01 1.843E+01 1.197E+02 1.232E+02 1.131E+06 21.8340 1.00000 1.576E+00
  4.000E+07 4.000E+07 3.514E+00 4.842E+01 6.748E+01 2.130E+01 1.372E+02 1.407E+02 1.169E+06 22.1011 1.00000 1.576E+00
  4.500E+07 4.500E+07 3.530E+00 5.458E+01 7.600E+01 2.419E+01 1.548E+02 1.583E+02 1.202E+06 22.3367 1.00000 1.576E+00
  5.000E+07 5.000E+07 3.545E+00 6.075E+01 8.453E+01 2.710E+01 1.724E+02 1.759E+02 1.232E+06 22.5474 1.00000 1.576E+00
  5.500E+07 5.500E+07 3.558E+00 6.689E+01 9.303E+01 3.007E+01 1.900E+02 1.935E+02 1.259E+06 22.7380 1.00000 1.576E+00
  6.000E+07 6.000E+07 3.570E+00 7.303E+01 1.015E+02 3.306E+01 2.076E+02 2.112E+02 1.284E+06 22.9120 1.00000 1.576E+00
  7.000E+07 7.000E+07 3.591E+00 8.534E+01 1.185E+02 3.909E+01 2.430E+02 2.466E+02 1.328E+06 23.2203 1.00000 1.576E+00
  8.000E+07 8.000E+07 3.610E+00 9.766E+01 1.356E+02 4.520E+01 2.784E+02 2.820E+02 1.366E+06 23.4874 1.00000 1.576E+00
  9.000E+07 9.000E+07 3.627E+00 1.100E+02 1.526E+02 5.137E+01 3.140E+02 3.176E+02 1.399E+06 23.7230 1.00000 1.576E+00
  1.000E+08 1.000E+08 3.641E+00 1.223E+02 1.697E+02 5.759E+01 3.496E+02 3.532E+02 1.429E+06 23.9337 1.00000 1.576E+00
  1.200E+08 1.200E+08 3.667E+00 1.468E+02 2.036E+02 6.911E+01 4.195E+02 4.232E+02 1.481E+06 24.2983 1.00000 1.576E+00
  1.400E+08 1.400E+08 3.690E+00 1.713E+02 2.375E+02 8.063E+01 4.894E+02 4.931E+02 1.524E+06 24.6066 1.00000 1.576E+00
  1.700E+08 1.700E+08 3.718E+00 2.080E+02 2.884E+02 9.790E+01 5.943E+02 5.980E+02 1.580E+06 24.9949 1.00000 1.576E+00
  2.000E+08 2.000E+08 3.741E+00 2.447E+02 3.393E+02 1.152E+02 6.992E+02 7.029E+02 1.626E+06 25.3200 1.00000 1.576E+00
  2.500E+08 2.500E+08 3.774E+00 3.059E+02 4.242E+02 1.440E+02 8.740E+02 8.778E+02 1.689E+06 25.7663 1.00000 1.576E+00
  3.000E+08 3.000E+08 3.801E+00 3.670E+02 5.090E+02 1.728E+02 1.049E+03 1.053E+03 1.741E+06 26.1309 1.00000 1.576E+00
  3.500E+08 3.500E+08 3.825E+00 4.282E+02 5.938E+02 2.016E+02 1.224E+03 1.227E+03 1.785E+06 26.4392 1.00000 1.576E+00
  4.000E+08 4.000E+08 3.845E+00 4.894E+02 6.786E+02 2.304E+02 1.398E+03 1.402E+03 1.823E+06 26.7063 1.00000 1.576E+00
  4.500E+08 4.500E+08 3.863E+00 5.506E+02 7.635E+02 2.592E+02 1.573E+03 1.577E+03 1.857E+06 26.9418 1.00000 1.576E+00
  5.000E+08 5.000E+08 3.879E+00 6.117E+02 8.483E+02 2.880E+02 1.748E+03 1.752E+03 1.887E+06 27.1526 1.00000 1.576E+00
  5.500E+08 5.500E+08 3.893E+00 6.729E+02 9.331E+02 3.167E+02 1.923E+03 1.927E+03 1.914E+06 27.3432 1.00000 1.576E+00
  6.000E+08 6.000E+08 3.907E+00 7.341E+02 1.018E+03 3.455E+02 2.098E+03 2.101E+03 1.939E+06 27.5172 1.00000 1.576E+00
  7.000E+08 7.000E+08 3.931E+00 8.564E+02 1.188E+03 4.031E+02 2.447E+03 2.451E+03 1.983E+06 27.8255 1.00000 1.576E+00
  8.000E+08 8.000E+08 3.952E+00 9.788E+02 1.357E+03 4.607E+02 2.797E+03 2.801E+03 2.021E+06 28.0926 1.00000 1.576E+00
  9.000E+08 9.000E+08 3.970E+00 1.101E+03 1.527E+03 5.183E+02 3.146E+03 3.150E+03 2.055E+06 28.3281 1.00000 1.576E+00
  1.000E+09 1.000E+09 3.987E+00 1.223E+03 1.697E+03 5.759E+02 3.496E+03 3.500E+03 2.085E+06 28.5389 1.00000 1.576E+00
